hr_bpm
72.0
72.19996296502052
72.39970376954035
72.59900049988097
72.79763173573389
72.99537679616049
73.19201598477036
73.38733083380579
73.58110434686121
73.77312123996803
73.96316818077692
74.1510340255717
74.3365100538519
74.51939020022283
74.699471283336
74.87655323162522
75.0504393055878
75.22093631636376
75.38785484037021
75.55100942975251
75.71021881841843
75.86530612342615
76.0160990415028
76.16243004047472
76.30413654539714
76.44106111917623
76.57305163748303
76.6999614577649
76.82164958216647
76.93798081417951
77.04882590884738
77.15406171635715
77.25357131886015
77.34724416036862
77.43497616958429
77.51666987552252
77.59223451580336
77.6615861374892
77.7246476903573
77.78134911250316
77.83162740817988
77.87542671778695
77.91269837993076
77.94340098548776
77.96750042361033
77.98496991962432
77.99579006477579
77.99994883779439
77.99744161824903
77.98827119168129
77.9724477465106
77.9499888627148
77.92091949229878
77.8852719315724
77.84308578526917
77.79440792254499
77.7392924249062
77.67780052612449
77.61000054420575
77.53596780548817
77.45578456095409
77.36953989484842
77.27732962570536
77.17925619989325
77.07542857779568
76.96596211275576
76.85097842291754
76.73060525610722
76.60497634790433
76.47423127306033
76.33851529042995
76.19797918158743
76.0527790833069
75.90307631409318
75.74903719495553
75.59083286462374
75.42863908941149
75.26263606793857
75.09300823092879
74.9199440363058
74.74363575981488
74.56427928140297
74.3820738675945
74.1972219501045
74.00992890093544
73.82040280420713
73.6288542249737
73.4354959752839
73.2405428777453
73.04421152685458
72.8467200483592
72.64828785691799
72.44913541232957
72.24948397459974
72.04955535811983
71.84957168522898
71.64975513943452
71.45032771856415
71.25151098812461
71.0535258351405
70.85659222274708
70.66092894580932
70.466753387839
70.27428127947998
70.08372645882946
69.89530063386228
69.70921314722153
69.52567074363716
69.34487734023088
69.1670337999626
68.99233770846993
68.82098315454904
68.65316051452031
68.4890562407187
68.32885265434369
68.17272774289889
68.02085496244649
67.87340304489615
67.73053581054242
67.59241198605906
67.45918502815243
67.33100295306978
67.20800817215203
67.09033733361353
66.97812117072485
66.87148435656697
66.77054536551847
66.6754163416296
66.58620297402919
66.50300437950327
66.42591299237543
66.35501446181155
66.2903875566629
66.23210407795325
66.18022877910737
66.13481929400942
66.09592607297127
66.06359232668174
66.03785397819921
66.01873962304079
66.00627049741243
66.00046045461539
66.00131594965507
66.00883603206941
66.02301234698496
66.04382914439908
66.07126329667847
66.105284324254
66.14585442948395
66.1929285386473
66.24645435202117
66.30637240198615
66.37261611909535
66.4451119060336
66.52377921938466
66.60853065911562
66.69927206567908
66.79590262462516
66.89831497860719
67.00639534665659
67.12002365059452
67.23907364843964
67.36341307466408
67.49290378714143
67.62740192062388
67.76675804657765
67.9108173391993
68.05941974742849
68.21240017276607
68.3695886526998
68.53081054953415
68.69588674441417
68.8646338363281
69.03686434586729
69.21238692351746
69.39100656224954
69.5725248141741
69.75674001101858
69.94344748818241
70.13243981212108
70.32350701080645
70.5164368070075
70.711014854132
70.90702497436743
71.10424939885617
71.30246900963863
71.50146358309502
71.70101203461569
71.90089266422783
72.10088340290609
72.30076205929304
72.50030656655555
72.69929522910296
72.89750696889266
73.0947215710496
73.2907199285269
73.48528428553546
73.67819847947257
73.86924818108027
74.0582211325669
74.24490738342732
74.42909952369959
74.61059291439919
74.78918591487458
74.96468010683165
75.13688051477807
75.30559582264269
75.4706385863292
75.63182544196815
75.78897730963565
75.94191959231273
76.09048236986395
76.23450058782014
76.37381424075525
76.50826855005377
76.6377141358709
76.76200718309492
76.8810096011269
76.99458917730051
77.10261972377138
77.20498121771284
77.30155993466222
77.39224857486977
77.47694638250942
77.5555592576195
77.62799986064843
77.69418770948975
77.75404926889838
77.80751803218892
77.85453459512506
77.89504672191823
77.929009403262
77.95638490633772
77.97714281673605
77.99126007224763
77.99872098848533
77.99951727630977
77.99364805103863
77.98111983342952
77.96194654243534
77.9361494797403
77.90375730609342
77.8648060094664
77.81933886507052
77.76740638727756
77.70906627349801
77.64438334007863
77.5734294502911
77.49628343449122
77.41303100253776
77.32376464856817
77.22858354823674
77.12759344852968
77.02090655027936
76.90864138350821
76.79092267574094
76.6678812134312
76.53965369665679
76.40638258724468
76.26821595049483
76.12530729067836
75.9778153804931
75.82590408466572
75.66974217789678
75.50950315735057
75.34536504989838
75.17751021432913
75.00612513874731
74.8314002333831
74.65352961904513
74.47271091145053
74.28914500167237
74.10303583294792
73.91459017409612
73.72401738979565
73.5315292079791
73.33733948460149
73.14166396604446
72.9447200494204
72.74672654104236
72.5479034133285
72.34847156041083
72.14865255272015
71.94866839081935
71.74874125875903
71.54909327722915
71.34994625678115
71.15152145139459
70.95403931266212
70.75771924486601
70.5627793612181
70.36943624153434
70.17790469161274
69.98839750458234
69.80112522448843
69.61629591237623
69.43411491513342
69.25478463734807
69.07850431643546
68.90546980128364
68.73587333466378
68.56990333964679
68.40774421026376
68.2495761066427
68.09557475484915
67.94591125165303
67.80075187443875
67.66025789646967
67.5245854077122
67.39388514141851
67.26830230666066
67.14797642700215
67.03304118548608
66.92362427611218
66.81984726196774
66.72182544016998
66.62966771377008
66.54347647076091
66.46334747032316
66.38936973643615
66.32162545897135
66.26018990237887
66.20513132206796
66.15651088857469
66.11438261960105
66.07879332000076
66.04978252977871
66.02738248016173
66.0116180577894
66.00250677706478
66.00005876069578
66.00427672844873
66.01515599412674
66.03268447077606
66.0568426841148
66.087603794169
66.1249336250921
66.16879070313456
66.21912630272156
66.27588450058747
66.3390022379071
66.40840939035455
66.48402884601194
66.56577659104138
66.653561803025
66.74728695186943
66.84684790816256
66.95213405886213
67.06302843018774
67.17940781757976
67.30114292258045
67.4280984964858
67.56013349060778
67.69710121298074
67.83884949133727
67.98522084217292
68.13605264571167
68.2911773265778
68.45042253997352
68.61361136315548
68.78056249199739
68.95109044242038
69.12500575646737
69.30211521279239
69.48222204133108
69.6651261419139
69.85062430657902
70.03851044533806
70.22857581514376
70.42060925180519
70.61439740459299
70.8097249732737
71.00637494731015
71.2041288469619
71.40276696601808
71.60206861589279
71.80181237081193
72.00177631381901
72.20173828332682
72.40147611994068
72.60076791327944
72.79939224851965
72.99712845238936
73.19375683833785
73.38905895060924
73.58281780694861
73.77481813967113
73.96484663482616
74.15269216919083
74.3381460448297
74.52100222095984
74.70105754286392
74.87811196759664
75.05196878623424
75.22243484241962
75.38932074696069
75.55244108824334
75.71161463822521
75.8666645537816
76.01741857317961
76.16370920746233
76.30537392653049
76.44225533971469
76.57420137063777
76.70106542617289
76.82270655930972
76.93898962574774
77.04978543404259
77.15497088913898
77.25442912913013
77.34804965509248
77.43572845385077
77.51736811353761
77.59287793181886
77.66217401666464
77.72517937955405
77.78182402101015
77.83204500836986
77.87578654570267
77.91300003580044
77.94364413416922
77.96768479496342
77.98509530881094
77.9958563324875
77.99995591040722
77.99738948790527
77.98815991629817
77.97227744971597
77.94975973370985
77.92063178564769
77.88492596691962
77.84268194698429
77.79394665929567
77.73877424915969
77.67722601357832
77.60937033314809
77.53528259608872
77.45504511448611
77.36874703284303
77.27648422903879
77.17835920780811
77.07448098685761
76.96496497574608
76.84993284766368
76.72951240425189
76.60383743361494
76.47304756168003
76.33728809707186
76.19670986967346
76.05146906305303
75.9017270409427
75.74765016796204
75.58940962478562
75.42718121795993
75.26114518458078
75.09148599204842
74.9183921331228
74.74205591650646
74.56267325318807
74.38044343878367
74.19556893211758
74.00825513028903
73.81871014047421
73.6271445487176
73.43377118596902
73.23880489162678
73.0424622748493
72.84496147390055
72.64652191379666
72.44736406252292
72.247709186092
72.04777910271562
71.84779593636271
71.64798186997777
71.4485588986339
71.24974858289438
71.05177180265702
70.85484851175487
70.65919749358562
70.46503611804154
70.2725801000096
70.08204325971059
69.893637285143
69.70757149689595
69.52405261559232
69.34328453222035
69.1654680816092
68.99080081929965
68.8194768020584
68.65168637227933
68.48761594651155
68.32744780834908
68.17135990591231
68.0195256541461
67.8721137421544
67.72928794578526
67.59120694567451
67.45802415095031
67.32988752879422
67.20693944004856
67.08931648105232
66.97714933188152
66.87056261116246
66.76967473761952
66.67459779851097
66.58543742509904
66.50229267529275
66.4252559235938
66.35441275846762
66.28984188725404
66.23161504872266
66.17979693337055
66.13444511155055
66.09560996951014
66.0633346534119
66.0376550213978
66.01859960375043
66.0061895711957
66.00043871138202
66.00135341356193
66.00893266149382
66.02316803457082
66.04404371717621
66.07153651625472
66.1056158870802
66.14624396719105
66.19337561845572
66.24695847722155
66.30693301249126
66.37323259206228
66.44578355655582
66.52450530125289
66.60931036564695
66.70010453061312
66.79678692308651
66.89925012813298
67.007380308288
67.12105733003106
67.24015489725497
67.36454069158182
67.49407651936994
67.628618465248
67.76801705200626
67.912117406667
68.06075943254963
68.21377798713945
68.37100306556229
68.53225998946144
68.69736960106654
68.86614846223961
69.03840905827607
69.21396000623533
69.39260626756862
69.57414936480863
69.75838760207941
69.94511628918232
70.13412796900842
70.32521264802499
70.51815802958028
70.71274974976654
70.90877161558042
71.10600584511481
71.30423330951668
71.5032337764408
71.7027861547298
71.90266874004821
72.1026594611979
72.30253612684086
72.50207667235577
72.70105940655343
72.89926325797771
73.09646802051762
73.2924545980581
73.48700524789776
73.67990382266258
73.87093601044768
74.05988957291937
74.2465545811139
74.43072364867007
74.61219216223736
74.79075850880291
74.96622429968536
75.13839459094618
75.3070780999741
75.47208741800159
75.63323921831761
75.79035445994502
75.94325858655665
76.09178172040882
76.23575885107677
76.37503001878285
76.50944049211289
76.6388409399243
76.76308759725399
76.88204242504263
76.99557326349702
77.10355397892081
77.20586460385
77.30239147033787
77.3930273362409
